id,tc,fair
0,21268.5,-14.520200000000003
1,21249.39,-14.392799999999994
2,21230.43,-14.266400000000004
3,21211.605000000003,-14.140900000000002
4,21192.915,-14.016300000000001
5,21174.36,-13.892600000000002
6,21155.940000000002,-13.769800000000004
7,21137.64,-13.647800000000004
8,21119.475,-13.526699999999991
9,21101.43,-13.40639999999999
10,21083.519999999997,-13.286999999999992
11,21065.73,-13.168399999999991
12,21048.074999999997,-13.050699999999992
13,21030.525,-12.933700000000002
14,21013.11,-12.817599999999999
15,20995.815,-12.702299999999994
16,20978.64,-12.587800000000001
17,20961.585,-12.474099999999993
18,20944.65,-12.361199999999997
19,20927.82,-12.248999999999995
20,20911.11,-12.137599999999992
21,20894.52,-12.027000000000001
22,20878.035000000003,-11.917100000000005
23,20861.67,-11.807999999999993
24,20845.410000000003,-11.699600000000004
25,20829.254999999997,-11.591899999999995
26,20813.22,-11.485
27,20797.29,-11.378799999999998
28,20781.464999999997,-11.273299999999992
29,20765.745,-11.168499999999995
30,20750.145,-11.064499999999995
31,20734.635000000002,-10.961100000000002
32,20719.230000000003,-10.858400000000003
33,20703.93,-10.7564
34,20688.72,-10.655000000000001
35,20673.614999999998,-10.554299999999998
36,20658.615,-10.454300000000003
37,20643.72,-10.355000000000004
38,20628.915,-10.256299999999996
39,20614.199999999997,-10.158199999999994
40,20599.59,-10.0608
41,20585.07,-9.963999999999999
42,20570.655,-9.867899999999992
43,20556.33,-9.772400000000005
44,20542.095,-9.677499999999995
45,20527.949999999997,-9.58319999999999
46,20513.894999999997,-9.489499999999992
47,20499.93,-9.3964
48,20486.055,-9.303899999999999
49,20472.27,-9.212000000000003
50,20458.575,-9.1207
51,20444.97,-9.030000000000001
52,20431.44,-8.939799999999991
53,20418.0,-8.850200000000001
54,20404.65,-8.761200000000002
55,20391.39,-8.672799999999995
56,20378.205,-8.584900000000005
57,20365.095,-8.497500000000002
58,20352.074999999997,-8.410699999999991
59,20339.145,-8.3245
60,20326.29,-8.238799999999998
61,20313.510000000002,-8.153599999999997
62,20300.805,-8.0689
63,20288.19,-7.984799999999993
64,20275.65,-7.901200000000003
65,20263.185,-7.818100000000001
66,20250.795,-7.735500000000002
67,20238.495,-7.653499999999994
68,20226.255,-7.571899999999999
69,20214.09,-7.490799999999993
70,20202.0,-7.410200000000003
71,20189.985,-7.330100000000002
72,20178.045,-7.250500000000002
73,20166.18,-7.171399999999991
74,20154.39,-7.092799999999997
75,20142.66,-7.0146000000000015
76,20131.004999999997,-6.936899999999994
77,20119.425000000003,-6.859700000000004
78,20107.905,-6.782899999999998
79,20096.46,-6.706599999999995
80,20085.09,-6.630799999999994
81,20073.78,-6.555399999999992
82,20062.53,-6.480400000000003
83,20051.355000000003,-6.405900000000003
84,20040.239999999998,-6.331800000000001
85,20029.2,-6.258200000000002
86,20018.22,-6.185000000000002
87,20007.300000000003,-6.112200000000001
88,19996.455,-6.039900000000003
89,19985.67,-5.9680000000000035
90,19974.945,-5.896500000000003
91,19964.28,-5.825400000000002
92,19953.675000000003,-5.7547
93,19943.145,-5.6845
94,19932.66,-5.614599999999996
95,19922.25,-5.545199999999994
96,19911.9,-5.4761999999999915
97,19901.595,-5.407499999999999
98,19891.364999999998,-5.339299999999994
99,19881.18,-5.2714
100,19871.055,-5.203900000000004
101,19860.989999999998,-5.136799999999994
102,19850.985,-5.0700999999999965
103,19841.04,-5.003799999999998
104,19831.14,-4.937799999999996
105,19821.315000000002,-4.872299999999996
106,19811.535,-4.807099999999991
107,19801.8,-4.742199999999997
108,19792.14,-4.677800000000005
109,19782.51,-4.613599999999991
110,19772.955,-4.549899999999994
111,19763.445,-4.486499999999992
112,19753.980000000003,-4.423400000000001
113,19744.59,-4.360799999999998
114,19735.230000000003,-4.298400000000001
115,19725.93,-4.236400000000003
116,19716.690000000002,-4.174800000000005
117,19707.48,-4.113399999999999
118,19698.345,-4.052499999999995
119,19689.239999999998,-3.991799999999998
120,19680.195,-3.9314999999999998
121,19671.195,-3.8714999999999975
122,19662.254999999997,-3.8118999999999943
123,19653.36,-3.752600000000001
124,19644.510000000002,-3.6936000000000035
125,19635.705,-3.634900000000002
126,19626.945,-3.576499999999996
127,19618.245000000003,-3.518500000000003
128,19609.589999999997,-3.460799999999992
129,19600.965,-3.4032999999999944
130,19592.4,-3.346199999999996
131,19583.88,-3.2894000000000005
132,19575.405,-3.2329000000000008
133,19566.975,-3.1766999999999967
134,19558.59,-3.1207999999999956
135,19550.25,-3.0651999999999973
136,19541.955,-3.0098999999999947
137,19533.705,-2.954899999999995
138,19525.5,-2.900199999999998
139,19517.34,-2.845799999999997
140,19509.21,-2.7915999999999954
141,19501.14,-2.7378
142,19493.1,-2.684199999999997
143,19485.105,-2.630899999999997
144,19477.155,-2.5778999999999996
145,19469.25,-2.525199999999998
146,19461.375,-2.472699999999996
147,19453.545,-2.420499999999997
148,19445.760000000002,-2.3686000000000007
149,19438.02,-2.317
150,19430.309999999998,-2.265599999999999
151,19422.645,-2.214500000000001
152,19415.010000000002,-2.1635999999999953
153,19407.42,-2.1129999999999995
154,19399.875,-2.0626999999999995
155,19392.36,-2.012599999999999
156,19384.89,-1.9627999999999943
157,19377.465,-1.9132999999999996
158,19370.055,-1.863900000000001
159,19362.705,-1.8148999999999944
160,19355.385000000002,-1.7660999999999945
161,19348.095,-1.7175000000000011
162,19340.85,-1.6691999999999965
163,19333.635000000002,-1.6210999999999984
164,19326.465,-1.5732999999999961
165,19319.325,-1.5257000000000005
166,19312.230000000003,-1.4784000000000006
167,19305.165,-1.4313000000000002
168,19298.13,-1.3843999999999994
169,19291.14,-1.3377999999999943
170,19284.18,-1.2913999999999959
171,19277.25,-1.245199999999997
172,19270.364999999998,-1.199300000000001
173,19263.495000000003,-1.153500000000001
174,19256.67,-1.107999999999997
175,19249.89,-1.0627999999999957
176,19243.125,-1.0176999999999978
177,19236.405,-0.9728999999999957
178,19229.715,-0.9283000000000001
179,19223.055,-0.883899999999997
180,19216.440000000002,-0.8397999999999968
181,19209.84,-0.7957999999999998
182,19203.285,-0.7520999999999987
183,19196.760000000002,-0.708599999999997
184,19190.265,-0.6652999999999949
185,19183.800000000003,-0.6221999999999994
186,19177.364999999998,-0.5792999999999964
187,19170.96,-0.5366
188,19164.585,-0.494099999999996
189,19158.254999999997,-0.45189999999999486
190,19151.940000000002,-0.40979999999999706
191,19145.655,-0.3678999999999988
192,19139.415,-0.32629999999999626
193,19133.190000000002,-0.28479999999999706
194,19126.995000000003,-0.24349999999999739
195,19120.845,-0.20250000000000057
196,19114.71,-0.16159999999999997
197,19108.605,-0.1208999999999989
198,19102.53,-0.08039999999999736
199,19096.485,-0.04009999999999536
200,19090.47,0
201,19084.485,0.0
202,19078.53,0.0
203,19072.59,0.0
204,19066.695,0.0
205,19060.815000000002,0.0
206,19054.965,0.0
207,19049.145,0.0
208,19043.355,0.0
209,19037.595,0.0
210,19031.85,0.0
211,19026.135000000002,0.0
212,19020.45,0.0
213,19014.795,0.0
214,19009.155,0.0
215,19003.545,0.0
216,18997.965,0.0
217,18992.415,0.0
218,18986.879999999997,0.0
219,18981.375,0.0
220,18975.885000000002,0.0
221,18970.440000000002,0.0
222,18965.010000000002,0.0
223,18959.595,0.0
224,18954.21,0.0
225,18948.855000000003,0.0
226,18943.53,0.0
227,18938.22,0.0
228,18932.925000000003,0.0
229,18927.675,0.0
230,18922.425000000003,0.0
231,18917.22,0.0
232,18912.03,0.0
233,18906.855,0.0
234,18901.71,0.0
235,18896.595,0.0
236,18891.495000000003,0.0
237,18886.41,0.0
238,18881.37,0.0
239,18876.33,0.0
240,18871.32,0.0
241,18866.34,0.0
242,18861.375,0.0
243,18856.425,0.0
244,18851.505,0.0
245,18846.6,0.0
246,18841.725,0.0
247,18836.864999999998,0.0
248,18832.035,0.0
249,18827.22,0.0
250,18822.42,0.0
251,18817.65,0.0
252,18812.895,0.0
253,18808.17,0.0
254,18803.46,0.0
255,18798.765,0.0
256,18794.1,0.0
257,18789.434999999998,0.0
258,18784.815000000002,0.0
259,18780.195,0.0
260,18775.605,0.0
261,18771.03,0.0
262,18766.485,0.0
263,18761.955,0.0
264,18757.44,0.0
265,18752.940000000002,0.0
266,18748.47,0.0
267,18744.015,0.0
268,18739.575,0.0
269,18735.15,0.0
270,18730.755,0.0
271,18726.375,0.0
272,18722.010000000002,0.0
273,18717.66,0.0
274,18713.34,0.0
275,18709.035,0.0
276,18704.745000000003,0.0
277,18700.47,0.0
278,18696.21,0.0
279,18691.965,0.0
280,18687.75,0.0
281,18683.550000000003,0.0
282,18679.364999999998,0.0
283,18675.195,0.0
284,18671.04,0.0
285,18666.915,0.0
286,18662.79,0.0
287,18658.695,0.0
288,18654.614999999998,0.0
289,18650.550000000003,0.0
290,18646.5,0.0
291,18642.465,0.0
292,18638.445,0.0
293,18634.440000000002,0.0
294,18630.465,0.0
295,18626.489999999998,0.0
296,18622.545,0.0
297,18618.6,0.0
298,18614.684999999998,0.0
299,18610.785,0.0
300,18606.9,0.0
301,18603.015,0.0
302,18599.16,0.0
303,18595.32,0.0
304,18591.495000000003,0.0
305,18587.684999999998,0.0
306,18583.89,0.0
307,18580.11,0.0
308,18576.345,0.0
309,18572.595,0.0
310,18568.86,0.0
311,18565.125,0.0
312,18561.42,0.0
313,18557.73,0.0
314,18554.055,0.0
315,18550.395,0.0
316,18546.75,0.0
317,18543.105,0.0
318,18539.489999999998,0.0
319,18535.89,0.0
320,18532.29,0.0
321,18528.72,0.0
322,18525.15,0.0
323,18521.595,0.0
324,18518.07,0.0
325,18514.545,0.0
326,18511.035,0.0
327,18507.54,0.0
328,18504.059999999998,0.0
329,18500.58,0.0
330,18497.129999999997,0.0
331,18493.695,0.0
332,18490.260000000002,0.0
333,18486.84,0.0
334,18483.434999999998,0.0
335,18480.045,0.0
336,18476.67,0.0
337,18473.309999999998,0.0
338,18469.965,0.0
339,18466.620000000003,0.0
340,18463.29,0.0
341,18459.989999999998,0.0
342,18456.690000000002,0.0
343,18453.39,0.0
344,18450.12,0.0
345,18446.85,0.0
346,18443.61,0.0
347,18440.370000000003,0.0
348,18437.145,0.0
349,18433.92,0.0
350,18430.725,0.0
351,18427.53,0.0
352,18424.35,0.0
353,18421.184999999998,0.0
354,18418.035,0.0
355,18414.885000000002,0.0
356,18411.765,0.0
357,18408.645,0.0
358,18405.525,0.0
359,18402.434999999998,0.0
360,18399.345,0.0
361,18396.27,0.0
362,18393.21,0.0
363,18390.165,0.0
364,18387.120000000003,0.0
365,18384.09,0.0
366,18381.075,0.0
367,18378.059999999998,0.0
368,18375.075,0.0
369,18372.09,0.0
370,18369.105,0.0
371,18366.15,0.0
372,18363.195,0.0
373,18360.254999999997,0.0
374,18357.315000000002,0.0
375,18354.39,0.0
376,18351.48,0.0
377,18348.585,0.0
378,18345.690000000002,0.0
379,18342.824999999997,0.0
380,18339.945,0.0
381,18337.095,0.0
382,18334.245000000003,0.0
383,18331.41,0.0
384,18328.575,0.0
385,18325.754999999997,0.0
386,18322.949999999997,0.0
387,18320.16,0.0
388,18317.37,0.0
389,18314.58,0.0
390,18311.82,0.0
391,18309.059999999998,0.0
392,18306.315000000002,0.0
393,18303.57,0.0
394,18300.84,0.0
395,18298.125,0.0
396,18295.41,0.0
397,18292.71,0.0
398,18290.025,0.0
399,18287.34,0.0
400,18284.67,0.0
401,18282.0,0.0
402,18279.345,0.0
403,18276.705,0.0
404,18274.065000000002,0.0
405,18271.440000000002,0.0
406,18268.83,0.0
407,18266.22,0.0
408,18263.625,0.0
409,18261.03,0.0
410,18258.449999999997,0.0
411,18255.870000000003,0.0
412,18253.32,0.0
413,18250.754999999997,0.0
414,18248.205,0.0
415,18245.67,0.0
416,18243.15,0.0
417,18238.255,0.020199999999995555
418,18234.9,0.041399999999995885
419,18231.66,0.06210000000000093
420,18228.085,0.08379999999999654
421,18224.975,0.1039999999999992
422,18221.655,0.12480000000000047
423,18218.39,0.1453999999999951
424,18214.9,0.16659999999999542
425,18211.765,0.18669999999999476
426,18208.684999999998,0.20659999999999457
427,18205.33,0.2271999999999963
428,18202.309999999998,0.24680000000000035
429,18199.03,0.2670999999999992
430,18195.77,0.2872999999999948
431,18192.864999999998,0.30639999999999645
432,18189.665,0.32629999999999626
433,18186.82,0.3450999999999951
434,18183.68,0.36469999999999914
435,18180.575,0.3841999999999999
436,18177.475,0.4035999999999973
437,18174.73,0.42190000000000083
438,18171.809999999998,0.44069999999999965
439,18168.595,0.4602999999999966
440,18165.735,0.47879999999999967
441,18162.879999999997,0.4971999999999994
442,18160.04,0.5155999999999992
443,18157.225,0.5337999999999994
444,18154.43,0.5518999999999963
445,18151.655,0.569899999999997
446,18148.6,0.5886999999999958
447,18145.865,0.6064999999999969
448,18143.15,0.6241999999999948
449,18140.455,0.6417999999999964
450,18137.8,0.6591999999999985
451,18135.144999999997,0.6766000000000005
452,18132.195,0.6948000000000008
453,18129.58,0.7119999999999962
454,18126.989999999998,0.7289999999999992
455,18124.415,0.7459999999999951
456,18121.845,0.7628999999999948
457,18118.995,0.7805999999999997
458,18116.48,0.7972999999999999
459,18113.989999999998,0.8138000000000005
460,18111.5,0.830299999999994
461,18109.03,0.8466999999999985
462,18106.28,0.863900000000001
463,18103.885000000002,0.8799999999999955
464,18101.475,0.896099999999997
465,18099.085,0.9120999999999952
466,18096.415,0.9288999999999987
467,18094.065000000002,0.9446999999999974
468,18091.755,0.9602999999999966
469,18089.125,0.9769000000000005
470,18086.855,0.9923000000000002
471,18084.6,1.0076999999999998
472,18082.05,1.0238999999999976
473,18079.855000000003,1.0389999999999944
474,18077.324999999997,1.055099999999996
475,18075.190000000002,1.069899999999997
476,18072.735,1.0856999999999957
477,18070.655,1.1002999999999972
478,18068.275,1.1158000000000001
479,18066.235,1.130199999999995
480,18063.95,1.1452999999999989
481,18061.735,1.1601999999999961
482,18059.559999999998,1.174900000000001
483,18057.19,1.1901999999999973
484,18055.0,1.204899999999995
485,18052.83,1.2194999999999965
486,18051.245000000003,1.232299999999995
487,18046.36,1.2549999999999955
488,18036.885,1.2914999999999992
489,18027.445,1.3278999999999996
490,18018.025,1.3641999999999967
491,18008.660000000003,1.4002999999999943
492,17999.315,1.4362999999999957
493,17990.010000000002,1.4720999999999975
494,17980.72,1.5078999999999994
495,17971.489999999998,1.5433999999999983
496,17962.275,1.5788999999999973
497,17953.1,1.6141999999999967
498,17943.96,1.6494
499,17934.86,1.6843999999999966
500,17925.76,1.7194000000000003
501,17916.735,1.754099999999994
502,17907.71,1.7887999999999948
503,17898.739999999998,1.8232999999999961
504,17889.79,1.8576999999999941
505,17880.86,1.891999999999996
506,17871.965,1.9261999999999944
507,17863.125,1.9602000000000004
508,17854.29,1.994099999999996
509,17845.505,2.0278999999999954
510,17836.745000000003,2.0614999999999952
511,17828.0,2.095099999999995
512,17819.31,2.1284999999999954
513,17810.645,2.161699999999996
514,17801.995000000003,2.194899999999997
515,17793.4,2.227899999999998
516,17784.805,2.2608999999999995
517,17776.25,2.293699999999994
518,17767.73,2.3263999999999996
519,17759.25,2.3588999999999984
520,17750.785,2.3913999999999973
521,17742.36,2.4236999999999966
522,17733.955,2.4558999999999997
523,17725.585,2.4879999999999995
524,17717.235,2.519999999999996
525,17708.920000000002,2.5518999999999963
526,17700.63,2.583599999999997
527,17692.39,2.6151999999999944
528,17684.135000000002,2.646799999999999
529,17675.934999999998,2.678199999999997
530,17667.77,2.7094999999999985
531,17659.61,2.740699999999997
532,17651.5,2.771799999999999
533,17643.415,2.8026999999999944
534,17635.345,2.833599999999997
535,17627.315,2.8643
536,17619.3,2.894999999999996
537,17611.325,2.9254999999999995
538,17603.350000000002,2.955999999999996
539,17595.43,2.9863
540,17587.53,3.0165000000000006
541,17579.65,3.046599999999998
542,17571.805,3.076599999999999
543,17563.98,3.106499999999997
544,17556.19,3.1362999999999985
545,17548.405,3.165999999999997
546,17540.67,3.195599999999999
547,17532.94,3.2250999999999976
548,17525.265,3.254399999999997
549,17517.59,3.283699999999996
550,17509.95,3.312899999999999
551,17502.33,3.3419999999999987
552,17494.730000000003,3.370999999999995
553,17487.184999999998,3.399799999999999
554,17479.64,3.428599999999996
555,17472.115,3.4572999999999965
556,17464.625,3.485900000000001
557,17457.155000000002,3.514399999999995
558,17449.704999999998,3.5427999999999997
559,17442.309999999998,3.570999999999998
560,17434.9,3.599199999999996
561,17427.54,3.627299999999998
562,17420.185,3.655299999999997
563,17412.864999999998,3.6831999999999994
564,17405.56,3.7110999999999947
565,17398.28,3.7387999999999977
566,17391.035,3.7663999999999973
567,17383.809999999998,3.7939000000000007
568,17376.6,3.821399999999997
569,17369.43,3.848700000000001
570,17362.26,3.8759999999999977
571,17355.145,3.903099999999995
572,17348.03,3.9301999999999992
573,17340.934999999998,3.9572000000000003
574,17333.86,3.984099999999998
575,17326.82,4.0108999999999995
576,17319.8,4.037599999999998
577,17312.815,4.0642
578,17305.815000000002,4.090799999999994
579,17298.87,4.117199999999997
580,17291.94,4.143599999999999
581,17285.015,4.169899999999998
582,17278.144999999997,4.195999999999998
583,17271.29,4.2220999999999975
584,17264.420000000002,4.248199999999997
585,17257.605,4.274099999999997
586,17250.809999999998,4.299900000000001
587,17244.03,4.325699999999998
588,17237.269999999997,4.351399999999998
589,17230.53,4.376999999999995
590,17223.809999999998,4.402499999999996
591,17217.125,4.427900000000001
592,17210.46,4.453199999999995
593,17203.795,4.478499999999997
594,17197.15,4.503699999999995
595,17190.54,4.528799999999997
596,17183.95,4.553799999999995
597,17177.395,4.578699999999998
598,17170.839999999997,4.6036
599,17164.31,4.628299999999996
600,17157.81,4.652999999999999
601,17151.315000000002,4.677599999999998
602,17144.835,4.702199999999998
603,17138.395,4.726599999999998
604,17131.97,4.750999999999998
605,17125.55,4.775299999999994
606,17119.165,4.799499999999995
607,17112.795,4.823699999999995
608,17106.45,4.847699999999996
609,17100.12,4.871699999999997
610,17093.81,4.895599999999995
611,17087.5,4.919499999999999
612,17081.245000000003,4.943199999999997
613,17074.99,4.966899999999995
614,17068.755,4.990499999999997
615,17062.52,5.014099999999999
616,17056.34,5.037499999999994
617,17050.16,5.060899999999997
618,17043.98,5.084299999999999
619,17037.855,5.107499999999995
620,17031.715,5.130699999999997
621,17025.61,5.153799999999997
622,17019.54,5.1768
623,17013.475,5.1997
624,17007.425,5.2226
625,17001.395,5.2453999999999965
626,16995.364999999998,5.2682
627,16989.39,5.290799999999997
628,16983.415,5.313399999999994
629,16977.44,5.3359999999999985
630,16971.504999999997,5.358399999999996
631,16965.585,5.380800000000001
632,16959.685,5.403099999999995
633,16953.785,5.425399999999996
634,16947.905000000002,5.447599999999994
635,16942.059999999998,5.469699999999996
636,16936.235,5.4916999999999945
637,16930.41,5.5137
638,16924.605000000003,5.535599999999995
639,16918.815000000002,5.557499999999997
640,16913.03,5.579299999999996
641,16907.28,5.600999999999999
642,16901.565,5.6225999999999985
643,16895.835,5.644199999999998
644,16890.14,5.665700000000001
645,16884.445,5.687199999999997
646,16878.785000000003,5.708599999999997
647,16873.129999999997,5.729900000000001
648,16867.51,5.751100000000001
649,16861.89,5.772299999999994
650,16856.27,5.7934999999999945
651,16850.705,5.814499999999995
652,16845.125,5.835499999999996
653,16839.56,5.856499999999997
654,16834.035,5.877299999999998
655,16828.525,5.8980999999999995
656,16823.0,5.918900000000001
657,16817.510000000002,5.939599999999999
658,16812.04,5.9602
659,16806.585,5.980799999999995
660,16801.135000000002,6.0013000000000005
661,16795.72,6.021699999999996
662,16790.305,6.042099999999998
663,16784.91,6.062399999999997
664,16779.530000000002,6.0826999999999956
665,16774.17,6.102899999999998
666,16768.815,6.1229999999999976
667,16763.489999999998,6.143099999999997
668,16758.17,6.1631
669,16752.865,6.183099999999996
670,16747.565,6.202999999999996
671,16742.28,6.222899999999996
672,16737.05,6.242599999999996
673,16731.784999999996,6.2623999999999995
674,16726.575,6.2819999999999965
675,16721.345,6.301699999999997
676,16716.155,6.3211999999999975
677,16710.965,6.340699999999998
678,16705.79,6.360199999999999
679,16700.62,6.379599999999996
680,16695.485,6.398899999999998
681,16690.364999999998,6.418199999999999
682,16685.25,6.437399999999997
