id,tc,fair
0,23377.95,-2.1083
1,23374.4175,-2.0925999999999974
2,23370.885000000002,-2.076899999999995
3,23367.3525,-2.0611999999999995
4,23363.864999999998,-2.0456999999999965
5,23360.377500000002,-2.0302000000000007
6,23356.934999999998,-2.0148999999999972
7,23353.47,-1.9994999999999976
8,23350.050000000003,-1.9842999999999975
9,23346.63,-1.9690999999999974
10,23343.255,-1.9540999999999968
11,23339.8575,-1.939
12,23336.504999999997,-1.9240999999999957
13,23333.1525,-1.9091999999999985
14,23329.822500000002,-1.8943999999999974
15,23326.515,-1.8796999999999997
16,23323.23,-1.8650999999999982
17,23319.945,-1.8504999999999967
18,23316.682500000003,-1.8359999999999985
19,23313.42,-1.8215000000000003
20,23310.18,-1.8070999999999984
21,23306.9625,-1.7927999999999997
22,23303.7675,-1.7785999999999973
23,23300.572500000002,-1.7643999999999949
24,23297.4,-1.7502999999999957
25,23294.25,-1.7363
26,23291.1,-1.722299999999997
27,23287.9725,-1.7083999999999975
28,23284.845,-1.694499999999998
29,23281.7625,-1.6807999999999979
30,23278.6575,-1.6669999999999945
31,23275.5975,-1.6533999999999978
32,23272.5375,-1.639799999999994
33,23269.5,-1.6263000000000005
34,23266.4625,-1.6128
35,23263.447500000002,-1.5993999999999957
36,23260.455,-1.5860999999999947
37,23257.4625,-1.5727999999999938
38,23254.4925,-1.559599999999996
39,23251.5225,-1.5463999999999984
40,23248.575,-1.533299999999997
41,23245.65,-1.5202999999999989
42,23242.725,-1.5072999999999936
43,23239.822500000002,-1.4943999999999988
44,23236.92,-1.481499999999997
45,23234.04,-1.4686999999999983
46,23231.182500000003,-1.455999999999996
47,23228.324999999997,-1.4432999999999936
48,23225.489999999998,-1.4306999999999945
49,23222.655,-1.4180999999999955
50,23219.8425,-1.4055999999999997
51,23217.03,-1.393099999999997
52,23214.239999999998,-1.3806999999999974
53,23211.45,-1.3682999999999979
54,23208.6825,-1.3559999999999945
55,23205.9375,-1.3437999999999946
56,23203.192499999997,-1.3315999999999946
57,23200.447500000002,-1.3193999999999946
58,23197.725,-1.307299999999998
59,23195.025,-1.2952999999999975
60,23192.325,-1.283299999999997
61,23189.6475,-1.2713999999999999
62,23186.97,-1.2594999999999956
63,23184.315000000002,-1.2476999999999947
64,23181.66,-1.2358999999999938
65,23179.0275,-1.2241999999999962
66,23176.395,-1.2124999999999986
67,23173.785,-1.2008999999999972
68,23171.175,-1.1892999999999958
69,23168.5875,-1.1777999999999977
70,23166.0,-1.1662999999999997
71,23163.434999999998,-1.1548999999999978
72,23160.870000000003,-1.143499999999996
73,23158.3275,-1.1321999999999974
74,23155.785,-1.120899999999999
75,23153.2425,-1.1096000000000004
76,23150.745,-1.0984999999999943
77,23148.225,-1.087299999999999
78,23145.7275,-1.0762
79,23143.252500000002,-1.0651999999999973
80,23140.7775,-1.0541999999999945
81,23138.302499999998,-1.0431999999999988
82,23135.85,-1.0322999999999993
83,23133.3975,-1.0213999999999999
84,23130.9675,-1.0105999999999966
85,23128.5375,-0.9998000000000005
86,23126.13,-0.9891000000000005
87,23123.722500000003,-0.9784000000000006
88,23121.3375,-0.9677999999999969
89,23118.9525,-0.9572000000000003
90,23116.567499999997,-0.9465999999999966
91,23114.205,-0.9360999999999962
92,23111.8425,-0.9255999999999958
93,23109.502500000002,-0.9151999999999987
94,23107.1625,-0.9047999999999945
95,23104.822500000002,-0.8943999999999974
96,23102.504999999997,-0.8840999999999966
97,23100.21,-0.873899999999999
98,23097.8925,-0.8635999999999981
99,23095.620000000003,-0.8534999999999968
100,23093.325,-0.8432999999999993
101,23091.052499999998,-0.8331999999999979
102,23088.8025,-0.8231999999999999
103,23086.53,-0.8130999999999986
104,23084.302499999998,-0.8031999999999968
105,23082.052499999998,-0.7931999999999988
106,23079.825,-0.783299999999997
107,23077.620000000003,-0.7734999999999985
108,23075.3925,-0.7635999999999967
109,23073.21,-0.7538999999999945
110,23071.004999999997,-0.744099999999996
111,23068.822500000002,-0.7343999999999937
112,23066.64,-0.7246999999999986
113,23064.480000000003,-0.7150999999999996
114,23062.32,-0.7055000000000007
115,23060.16,-0.6958999999999946
116,23058.0225,-0.686399999999999
117,23055.885000000002,-0.6768999999999963
118,23053.77,-0.6674999999999969
119,23051.655,-0.6580999999999975
120,23049.54,-0.6486999999999981
121,23047.447500000002,-0.6393999999999949
122,23045.355000000003,-0.6300999999999988
123,23043.2625,-0.6207999999999956
124,23041.192499999997,-0.6115999999999957
125,23039.122499999998,-0.6023999999999958
126,23037.052499999998,-0.593199999999996
127,23035.005,-0.5840999999999994
128,23032.9575,-0.5749999999999957
129,23030.91,-0.5658999999999992
130,23028.885000000002,-0.5568999999999988
131,23026.86,-0.5478999999999985
132,23024.8575,-0.5389999999999944
133,23022.832499999997,-0.529999999999994
134,23020.8525,-0.5212000000000003
135,23018.85,-0.5122999999999962
136,23016.87,-0.5034999999999954
137,23014.89,-0.4946999999999946
138,23012.91,-0.4858999999999938
139,23010.9525,-0.4771999999999963
140,23008.995000000003,-0.4684999999999988
141,23007.059999999998,-0.45989999999999753
142,23005.1025,-0.45120000000000005
143,23003.167500000003,-0.44259999999999877
144,23001.254999999997,-0.4340999999999937
145,22999.32,-0.42549999999999955
146,22997.4075,-0.4169999999999945
147,22995.5175,-0.40859999999999985
148,22993.605,-0.4000999999999948
149,22991.715,-0.39170000000000016
150,22989.825,-0.3832999999999984
151,22987.9575,-0.375
152,22986.09,-0.3666999999999945
153,22984.2225,-0.35839999999999606
154,22982.355,-0.35009999999999764
155,22980.510000000002,-0.34189999999999543
156,22978.665,-0.33370000000000033
157,22976.82,-0.3254999999999981
158,22974.9975,-0.31739999999999924
159,22973.175000000003,-0.30930000000000035
160,22971.3525,-0.30119999999999436
161,22969.53,-0.2930999999999955
162,22967.730000000003,-0.2850999999999999
163,22965.93,-0.27709999999999724
164,22964.129999999997,-0.26909999999999457
165,22962.3525,-0.2611999999999952
166,22960.575,-0.25329999999999586
167,22958.7975,-0.2453999999999965
168,22957.042500000003,-0.23760000000000048
169,22955.265,-0.22969999999999402
170,22953.510000000002,-0.221899999999998
171,22951.7775,-0.21419999999999817
172,22950.0225,-0.20639999999999503
173,22948.29,-0.1986999999999952
174,22946.5575,-0.1909999999999954
175,22944.825,-0.18329999999999558
176,22943.114999999998,-0.17569999999999908
177,22941.405,-0.16809999999999548
178,22939.695,-0.16049999999999898
179,22937.985,-0.15289999999999537
180,22936.2975,-0.1453999999999951
181,22934.61,-0.1378999999999948
182,22932.9225,-0.13039999999999452
183,22931.2575,-0.12299999999999756
184,22929.57,-0.11549999999999727
185,22927.905,-0.10810000000000031
186,22926.239999999998,-0.10069999999999624
187,22924.5975,-0.09339999999999549
188,22922.932500000003,-0.08599999999999852
189,22921.29,-0.07869999999999777
190,22919.67,-0.07150000000000034
191,22918.0275,-0.06419999999999959
192,22916.4075,-0.056999999999995055
193,22914.7875,-0.049799999999997624
194,22913.167500000003,-0.04260000000000019
195,22911.5475,-0.03539999999999566
196,22909.949999999997,-0.02829999999999444
197,22908.3525,-0.02120000000000033
198,22906.755,-0.014099999999999113
199,22905.1575,-0.006999999999997897
200,22903.5825,0
201,22902.0075,0.0
202,22900.432500000003,0.0
203,22898.8575,0.0
204,22897.305,0.0
205,22895.730000000003,0.0
206,22894.177499999998,0.0
207,22892.6475,0.0
208,22891.095,0.0
209,22889.565000000002,0.0
210,22888.035,0.0
211,22886.504999999997,0.0
212,22884.975,0.0
213,22883.4675,0.0
214,22881.9375,0.0
215,22880.43,0.0
216,22878.945,0.0
217,22877.4375,0.0
218,22875.9525,0.0
219,22874.4675,0.0
220,22872.9825,0.0
221,22871.4975,0.0
222,22870.035,0.0
223,22868.55,0.0
224,22867.0875,0.0
225,22865.625,0.0
226,22864.185,0.0
227,22862.7225,0.0
228,22861.2825,0.0
229,22859.8425,0.0
230,22858.4025,0.0
231,22856.9625,0.0
232,22855.545,0.0
233,22854.127500000002,0.0
234,22852.71,0.0
235,22851.2925,0.0
236,22849.875,0.0
237,22848.480000000003,0.0
238,22847.0625,0.0
239,22845.6675,0.0
240,22844.295,0.0
241,22842.9,0.0
242,22841.505,0.0
243,22840.1325,0.0
244,22838.760000000002,0.0
245,22837.3875,0.0
246,22836.015,0.0
247,22834.665,0.0
248,22833.2925,0.0
249,22831.942499999997,0.0
250,22830.5925,0.0
251,22829.265,0.0
252,22827.915,0.0
253,22826.5875,0.0
254,22825.2375,0.0
255,22823.91,0.0
256,22822.5825,0.0
257,22821.2775,0.0
258,22819.95,0.0
259,22818.645,0.0
260,22817.34,0.0
261,22816.035,0.0
262,22814.730000000003,0.0
263,22813.425000000003,0.0
264,22812.1425,0.0
265,22810.8375,0.0
266,22809.555,0.0
267,22808.2725,0.0
268,22807.0125,0.0
269,22805.73,0.0
270,22804.447500000002,0.0
271,22803.1875,0.0
272,22801.927499999998,0.0
273,22800.667500000003,0.0
274,22799.4075,0.0
275,22798.17,0.0
276,22796.910000000003,0.0
277,22795.6725,0.0
278,22794.434999999998,0.0
279,22793.197500000002,0.0
280,22791.96,0.0
281,22790.745000000003,0.0
282,22789.5075,0.0
283,22788.292500000003,0.0
284,22787.0775,0.0
285,22785.862500000003,0.0
286,22784.6475,0.0
287,22783.4325,0.0
288,22782.239999999998,0.0
289,22781.025,0.0
290,22779.8325,0.0
291,22778.64,0.0
292,22777.447500000002,0.0
293,22776.254999999997,0.0
294,22775.085,0.0
295,22773.8925,0.0
296,22772.7225,0.0
297,22771.552499999998,0.0
298,22770.3825,0.0
299,22766.2425,0.014099999999999113
300,22765.155,0.02289999999999992
301,22763.8875,0.031999999999996476
302,22762.35,0.04169999999999874
303,22761.614999999998,0.04970000000000141
304,22759.845,0.059799999999995634
305,22758.7425,0.06850000000000023
306,22757.67,0.0771000000000015
307,22756.0875,0.08679999999999666
308,22755.097500000003,0.0951999999999984
309,22753.574999999997,0.10470000000000113
310,22752.614999999998,0.11299999999999955
311,22751.122499999998,0.12239999999999895
312,22749.637499999997,0.13170000000000215
313,22748.760000000002,0.13980000000000103
314,22747.305,0.1490000000000009
315,22745.872499999998,0.15820000000000078
316,22744.980000000003,0.16619999999999635
317,22743.5775,0.1753
318,22742.1525,0.18439999999999657
319,22740.7575,0.1933999999999969
320,22739.8725,0.20129999999999626
321,22738.4775,0.2102999999999966
322,22737.06,0.21929999999999694
323,22735.6725,0.22820000000000107
324,22734.285000000003,0.2370999999999981
325,22733.4075,0.24490000000000123
326,22732.05,0.25370000000000203
327,22730.67,0.26249999999999574
328,22729.29,0.27129999999999654
329,22727.887499999997,0.28009999999999735
330,22726.485,0.28889999999999816
331,22725.644999999997,0.29650000000000176
332,22724.2725,0.30519999999999925
333,22722.9,0.31389999999999674
334,22721.5575,0.322499999999998
335,22720.162500000002,0.3311999999999955
336,22718.7975,0.33979999999999677
337,22717.41,0.34839999999999804
338,22716.0225,0.3569999999999993
339,22715.22,0.35130000000000194
340,22713.8325,0.34600000000000364
341,22712.475,0.34070000000000533
342,22711.095,0.33550000000000324
343,22709.715000000004,0.33030000000000115
344,22708.364999999998,0.32510000000000616
345,22706.985,0.31990000000000407
346,22705.6125,0.3148000000000053
347,22704.262499999997,0.3096000000000032
348,22703.4525,0.303600000000003
349,22702.08,0.2985000000000042
350,22700.715,0.29350000000000165
351,22699.3725,0.2884000000000029
352,22698.0075,0.2834000000000003
353,22696.62,0.2785000000000011
354,22695.254999999997,0.2735000000000056
355,22693.8975,0.2686000000000064
356,22692.532499999998,0.26360000000000383
357,22691.152500000004,0.2588000000000008
358,22689.795,0.25390000000000157
359,22688.97,0.24810000000000088
360,22687.620000000003,0.24330000000000496
361,22686.27,0.23850000000000193
362,22684.89,0.23370000000000601
363,22683.517499999998,0.2290000000000063
364,22682.197500000002,0.22420000000000329
365,22680.824999999997,0.21950000000000358
366,22679.4525,0.21480000000000388
367,22678.0875,0.2102000000000004
368,22676.745000000003,0.20550000000000068
369,22675.379999999997,0.2009000000000043
370,22674.015,0.1963000000000008
371,22672.65,0.19170000000000442
372,22671.2925,0.18720000000000425
373,22670.489999999998,0.1817000000000064
374,22669.1025,0.17720000000000624
375,22667.745000000003,0.17270000000000607
376,22666.417499999996,0.1682000000000059
377,22665.0375,0.16380000000000194
378,22663.6875,0.1594000000000051
379,22662.307500000003,0.15500000000000114
380,22660.9575,0.15060000000000429
381,22659.6075,0.14620000000000033
382,22658.235,0.1418999999999997
383,22656.915,0.13750000000000284
384,22655.5425,0.1332000000000022
385,22654.199999999997,0.12890000000000157
386,22652.835,0.12470000000000425
387,22651.4625,0.12040000000000362
388,22650.1275,0.1162000000000063
389,22649.295,0.11110000000000042
390,22647.93,0.1069000000000031
391,22646.572500000002,0.102800000000002
392,22645.2375,0.09860000000000468
393,22643.879999999997,0.09450000000000358
394,22642.5225,0.09040000000000248
395,22641.165,0.08630000000000138
396,22639.807500000003,0.08220000000000027
397,22638.4575,0.07820000000000249
398,22637.129999999997,0.07410000000000139
399,22635.75,0.0701000000000036
400,22634.4,0.06610000000000582
401,22633.11,0.06210000000000093
402,22631.8125,0.05799999999999983
403,22630.5225,0.054000000000002046
404,22629.255000000005,0.049900000000000944
405,22627.965000000004,0.04590000000000316
406,22626.704999999998,0.04190000000000538
407,22625.392499999998,0.03800000000000381
408,22624.102499999997,0.034000000000006025
409,22622.2875,0.03100000000000591
410,22621.027500000004,0.027000000000001023
411,22619.745000000003,0.023099999999999454
412,22618.462499999998,0.01920000000000499
413,22617.1875,0.015399999999999636
414,22615.905,0.011500000000005173
415,22614.629999999997,0.007699999999999818
416,22613.325,0.003900000000001569
417,22612.05,0.00010000000000331966
418,22610.774999999998,-0.0036999999999949296
419,22609.4775,-0.0073999999999969646
420,22608.2025,-0.011199999999995214
421,22606.402499999997,-0.013999999999995794
422,22605.135000000002,-0.01769999999999783
423,22603.8375,-0.021399999999999864
424,22602.57,-0.025099999999994793
425,22601.28,-0.028700000000000614
426,22600.012499999997,-0.032399999999995543
427,22598.722499999996,-0.03599999999999426
428,22597.4625,-0.03960000000000008
429,22596.1725,-0.043199999999998795
430,22594.9125,-0.04679999999999751
431,22593.63,-0.05030000000000001
432,22592.34,-0.05389999999999873
433,22591.0575,-0.05739999999999412
434,22589.2725,-0.05999999999999517
435,22587.99,-0.06349999999999767
436,22586.737500000003,-0.06700000000000017
437,22585.432500000003,-0.07039999999999935
438,22584.18,-0.07389999999999475
439,22582.905,-0.07729999999999393
440,22581.63,-0.08070000000000022
441,22580.355000000003,-0.0840999999999994
442,22579.08,-0.08749999999999858
443,22577.835,-0.09089999999999776
444,22576.5375,-0.09419999999999362
445,22574.7375,-0.09659999999999513
446,22573.4925,-0.09999999999999432
447,22572.225,-0.10329999999999728
448,22570.9575,-0.10660000000000025
449,22569.69,-0.10989999999999611
450,22568.4,-0.11309999999999576
451,22567.1625,-0.11639999999999873
452,22565.8725,-0.11959999999999837
453,22564.6125,-0.12279999999999802
454,22563.3525,-0.12599999999999767
455,22562.0925,-0.12919999999999732
456,22560.8325,-0.13239999999999696
457,22559.0175,-0.13459999999999894
458,22557.7575,-0.1377999999999986
459,22556.504999999997,-0.14089999999999492
460,22555.274999999998,-0.14409999999999457
461,22553.9925,-0.147199999999998
462,22552.739999999998,-0.15029999999999433
463,22551.4875,-0.15339999999999776
464,22550.2125,-0.15639999999999787
465,22548.989999999998,-0.1594999999999942
466,22547.715,-0.16249999999999432
467,22545.9075,-0.16460000000000008
468,22544.6625,-0.1676000000000002
469,22543.417500000003,-0.1706000000000003
470,22542.1725,-0.17360000000000042
471,22540.9275,-0.17660000000000053
472,22539.682500000003,-0.17960000000000065
473,22538.445,-0.18249999999999744
474,22537.199999999997,-0.18549999999999756
475,22535.932500000003,-0.18839999999999435
476,22534.695,-0.19129999999999825
477,22532.925,-0.1932999999999936
478,22531.6875,-0.1961999999999975
479,22530.449999999997,-0.19909999999999428
480,22529.2425,-0.20199999999999818
481,22527.9825,-0.20479999999999876
482,22526.775,-0.20769999999999555
483,22525.515,-0.21049999999999613
484,22524.285000000003,-0.21329999999999671
485,22522.5225,-0.21519999999999584
486,22521.2925,-0.21799999999999642
487,22520.0925,-0.220799999999997
488,22518.8625,-0.22359999999999758
489,22517.6325,-0.22639999999999816
490,22516.432500000003,-0.22919999999999874
491,22515.21,-0.231899999999996
492,22513.4775,-0.23379999999999512
493,22512.254999999997,-0.2364999999999995
494,22511.0625,-0.23919999999999675
495,22509.862500000003,-0.24199999999999733
496,22508.67,-0.2446999999999946
497,22507.447500000002,-0.24739999999999895
498,22505.752500000002,-0.24919999999999476
499,22504.559999999998,-0.2518999999999991
500,22503.3675,-0.2545999999999964
501,22502.205,-0.25729999999999364
502,22501.0125,-0.259999999999998
503,22499.325,-0.2616999999999976
504,22498.1625,-0.26439999999999486
505,22497.0,-0.2670999999999992
506,22495.8675,-0.2697999999999965
507,22494.18,-0.2714999999999961
508,22493.0775,-0.27420000000000044
509,22491.945,-0.2768999999999977
510,22490.8425,-0.27959999999999496
511,22489.2075,-0.2813999999999979
512,22488.135000000002,-0.28409999999999513
513,22486.552499999998,-0.28599999999999426
514,22485.510000000002,-0.2886999999999986
515,22483.9575,-0.29059999999999775
516,22482.989999999998,-0.29349999999999454
517,22481.497499999998,-0.29539999999999367
518,22480.6125,-0.2983999999999938
519,22479.225000000002,-0.30049999999999955
520,22477.994999999995,-0.30289999999999395
521,22476.345,-0.30449999999999733
522,22475.4375,-0.3073999999999941
523,22474.08,-0.3094999999999999
524,22474.2075,-0.3141999999999996
525,22471.447500000002,-0.3138000000000005
526,22466.535000000003,-0.3096999999999994
527,22461.6225,-0.3055999999999983
528,22456.739999999998,-0.3014999999999972
529,22451.8575,-0.2973999999999961
530,22447.004999999997,-0.293299999999995
531,22442.122499999998,-0.2891999999999939
532,22437.322500000002,-0.2851999999999961
533,22432.47,-0.281099999999995
534,22427.67,-0.27709999999999724
535,22422.847499999996,-0.27299999999999613
536,22418.0775,-0.26899999999999835
537,22413.307500000003,-0.26500000000000057
538,22408.515,-0.26089999999999947
539,22403.775,-0.2568999999999946
540,22399.035,-0.2528999999999968
541,22394.295000000002,-0.248899999999999
542,22389.6075,-0.24499999999999744
543,22384.8975,-0.24099999999999966
544,22380.1875,-0.23699999999999477
545,22375.53,-0.2331000000000003
546,22370.85,-0.22909999999999542
547,22366.192499999997,-0.22519999999999385
548,22361.542500000003,-0.22119999999999607
549,22356.915,-0.2172999999999945
550,22352.2875,-0.21340000000000003
551,22347.690000000002,-0.20949999999999847
552,22343.0925,-0.2055999999999969
553,22338.525,-0.20169999999999533
554,22333.927499999998,-0.19779999999999376
555,22329.36,-0.1938999999999993
556,22324.845,-0.19009999999999394
557,22320.277500000004,-0.18619999999999948
558,22315.7625,-0.18239999999999412
559,22311.255,-0.17849999999999966
560,22306.739999999998,-0.1746999999999943
561,22302.255,-0.17089999999999606
562,22297.800000000003,-0.1670999999999978
563,22293.2925,-0.16319999999999624
564,22288.8375,-0.159399999999998
565,22284.3825,-0.15559999999999974
566,22279.98,-0.1518999999999977
567,22275.555,-0.14809999999999945
568,22271.129999999997,-0.1442999999999941
569,22266.705,-0.14049999999999585
570,22262.332499999997,-0.13679999999999382
571,22257.9375,-0.13299999999999557
572,22253.595,-0.12930000000000064
573,22249.2225,-0.1255999999999986
574,22244.857500000002,-0.12180000000000035
575,22240.545000000002,-0.11809999999999832
576,22236.2025,-0.11439999999999628
577,22231.89,-0.11069999999999425
578,22227.5775,-0.10699999999999932
579,22223.295,-0.10329999999999728
580,22219.035,-0.09969999999999857
581,22214.752500000002,-0.09599999999999653
582,22210.47,-0.0922999999999945
583,22206.239999999998,-0.08869999999999578
584,22201.987499999996,-0.08499999999999375
585,22197.7575,-0.08139999999999503
