id,tc,fair
0,15390.79,-2.351399999999998
1,15387.955000000002,-2.332500000000003
2,15385.134999999998,-2.313699999999997
3,15382.345,-2.295099999999998
4,15379.555,-2.2764999999999986
5,15376.795,-2.258099999999999
6,15374.05,-2.2398000000000025
7,15371.305,-2.221499999999999
8,15368.59,-2.203400000000002
9,15365.89,-2.1854000000000013
10,15363.205,-2.167499999999997
11,15360.535,-2.149700000000003
12,15357.895,-2.132100000000001
13,15355.255000000001,-2.1144999999999996
14,15352.630000000001,-2.0970000000000013
15,15350.02,-2.0795999999999992
16,15347.425,-2.0623000000000005
17,15344.845,-2.045099999999998
18,15342.295,-2.028100000000002
19,15339.744999999999,-2.011099999999999
20,15337.21,-1.9941999999999993
21,15334.69,-1.977400000000003
22,15332.185000000001,-1.9607000000000028
23,15329.695,-1.9440999999999988
24,15327.22,-1.9275999999999982
25,15324.76,-1.911200000000001
26,15322.314999999999,-1.8948999999999998
27,15319.869999999999,-1.8785999999999987
28,15317.455,-1.8624999999999972
29,15315.04,-1.8464000000000027
30,15312.654999999999,-1.8305000000000007
31,15310.27,-1.8145999999999987
32,15307.9,-1.7988
33,15305.545,-1.7830999999999975
34,15303.205,-1.7674999999999983
35,15300.880000000001,-1.7520000000000024
36,15298.57,-1.7366000000000028
37,15296.26,-1.7212000000000032
38,15293.965,-1.7058999999999997
39,15291.685000000001,-1.6906999999999996
40,15289.42,-1.6756000000000029
41,15287.17,-1.6606000000000023
42,15284.935,-1.645699999999998
43,15282.7,-1.6308000000000007
44,15280.48,-1.6159999999999997
45,15278.275000000001,-1.601300000000002
46,15276.085,-1.5867000000000004
47,15273.91,-1.5722000000000023
48,15271.735,-1.557699999999997
49,15269.575,-1.5433000000000021
50,15267.43,-1.5290000000000035
51,15265.285,-1.5146999999999977
52,15263.17,-1.5005999999999986
53,15261.055,-1.4864999999999995
54,15258.955,-1.4724999999999966
55,15256.855,-1.4585000000000008
56,15254.785,-1.4446999999999974
57,15252.715,-1.4309000000000012
58,15250.645,-1.4170999999999978
59,15248.605,-1.403500000000001
60,15246.564999999999,-1.3898999999999972
61,15244.54,-1.3763999999999967
62,15242.515,-1.3629000000000033
63,15240.52,-1.3496000000000024
64,15238.525000000001,-1.3363000000000014
65,15236.529999999999,-1.3230000000000004
66,15234.564999999999,-1.309899999999999
67,15232.585,-1.2967000000000013
68,15230.635,-1.2837000000000032
69,15228.685,-1.270699999999998
70,15226.75,-1.2578000000000031
71,15224.83,-1.2449999999999974
72,15222.91,-1.2321999999999989
73,15221.005,-1.2194999999999965
74,15219.115,-1.2068999999999974
75,15217.224999999999,-1.1942999999999984
76,15215.335,-1.1816999999999993
77,15213.475,-1.1692999999999998
78,15211.615,-1.1569000000000003
79,15209.755000000001,-1.1445000000000007
80,15207.925,-1.1323000000000008
81,15206.095000000001,-1.1201000000000008
82,15204.265,-1.1079000000000008
83,15202.45,-1.095799999999997
84,15200.65,-1.0837999999999965
85,15198.85,-1.0718000000000032
86,15197.064999999999,-1.059899999999999
87,15195.28,-1.0480000000000018
88,15193.51,-1.036200000000001
89,15191.74,-1.0244
90,15190.0,-1.0127999999999986
91,15188.244999999999,-1.001100000000001
92,15186.505000000001,-0.9894999999999996
93,15184.78,-0.9780000000000015
94,15183.055,-0.9665000000000035
95,15181.345000000001,-0.9551000000000016
96,15179.650000000001,-0.9438000000000031
97,15177.955,-0.9324999999999974
98,15176.26,-0.9211999999999989
99,15174.58,-0.9099999999999966
100,15172.915,-0.8988999999999976
101,15171.25,-0.8877999999999986
102,15169.585,-0.8766999999999996
103,15167.935,-0.8656999999999968
104,15166.3,-0.8547999999999973
105,15164.665,-0.8438999999999979
106,15163.045,-0.8331000000000017
107,15161.425,-0.8222999999999985
108,15159.82,-0.8115999999999985
109,15158.215,-0.8008999999999986
110,15156.61,-0.7901999999999987
111,15155.02,-0.7796000000000021
112,15153.445,-0.7691000000000017
113,15151.869999999999,-0.7586000000000013
114,15150.31,-0.7481999999999971
115,15148.75,-0.7378
116,15147.19,-0.7274000000000029
117,15145.645,-0.7171000000000021
118,15144.115,-0.7068999999999974
119,15142.585,-0.6966999999999999
120,15141.055,-0.6865000000000023
121,15139.54,-0.676400000000001
122,15138.025,-0.6662999999999997
123,15136.525000000001,-0.6563000000000017
124,15135.025,-0.6462999999999965
125,15133.54,-0.6364000000000019
126,15132.055,-0.6265000000000001
127,15130.57,-0.6165999999999983
128,15129.1,-0.6067999999999998
129,15127.645,-0.5970999999999975
130,15126.19,-0.5874000000000024
131,15124.735,-0.5777000000000001
132,15123.279999999999,-0.5679999999999978
133,15121.855,-0.5585000000000022
134,15120.415,-0.5489000000000033
135,15118.99,-0.5394000000000005
136,15117.564999999999,-0.5298999999999978
137,15116.154999999999,-0.5204999999999984
138,15114.744999999999,-0.511099999999999
139,15113.35,-0.5018000000000029
140,15111.955,-0.4924999999999997
141,15110.56,-0.4831999999999965
142,15109.18,-0.47399999999999665
143,15107.8,-0.46479999999999677
144,15106.435000000001,-0.4557000000000002
145,15105.07,-0.44659999999999656
146,15103.705,-0.4375
147,15102.355,-0.42849999999999966
148,15101.005000000001,-0.4194999999999993
149,15099.67,-0.4106000000000023
150,15098.335,-0.40169999999999817
151,15097.0,-0.39280000000000115
152,15095.68,-0.38400000000000034
153,15094.36,-0.37519999999999953
154,15093.04,-0.3663999999999987
155,15091.735,-0.35770000000000124
156,15090.43,-0.34899999999999665
157,15089.14,-0.3404000000000025
158,15087.835,-0.3316999999999979
159,15086.560000000001,-0.32319999999999993
160,15085.27,-0.31459999999999866
161,15083.994999999999,-0.3061000000000007
162,15082.735,-0.29769999999999897
163,15081.46,-0.289200000000001
164,15080.2,-0.2807999999999993
165,15078.955,-0.27250000000000085
166,15077.695,-0.2640999999999991
167,15076.45,-0.2558000000000007
168,15075.220000000001,-0.2475999999999985
169,15073.975,-0.23930000000000007
170,15072.744999999999,-0.23109999999999786
171,15071.529999999999,-0.22299999999999898
172,15070.3,-0.21479999999999677
173,15069.1,-0.2068000000000012
174,15067.885,-0.19870000000000232
175,15066.685000000001,-0.19069999999999965
176,15065.485,-0.18269999999999698
177,15064.285,-0.1747000000000014
178,15063.1,-0.16680000000000206
179,15061.915,-0.1589000000000027
180,15060.73,-0.15100000000000335
181,15059.560000000001,-0.14320000000000022
182,15058.375,-0.13530000000000086
183,15057.220000000001,-0.12760000000000105
184,15056.05,-0.11979999999999791
185,15054.895,-0.11209999999999809
186,15053.74,-0.10439999999999827
187,15052.6,-0.09680000000000177
188,15051.46,-0.08919999999999817
189,15050.32,-0.08160000000000167
190,15049.18,-0.07399999999999807
191,15048.055,-0.06649999999999778
192,15046.93,-0.0589999999999975
193,15045.805,-0.051499999999997215
194,15044.68,-0.04399999999999693
195,15043.57,-0.036599999999999966
196,15042.460000000001,-0.029200000000003
197,15041.365000000002,-0.02190000000000225
198,15040.27,-0.0146000000000015
199,15039.16,-0.007199999999997431
200,15038.08,0
201,15036.985,0.0
202,15035.905,0.0
203,15034.825,0.0
204,15033.76,0.0
205,15032.68,0.0
206,15031.615,0.0
207,15030.55,0.0
208,15029.5,0.0
209,15028.45,0.0
210,15027.400000000001,0.0
211,15026.349999999999,0.0
212,15025.3,0.0
213,15024.265,0.0
214,15023.23,0.0
215,15022.21,0.0
216,15021.175,0.0
217,15020.154999999999,0.0
218,15019.135,0.0
219,15018.115,0.0
220,15017.11,0.0
221,15016.105,0.0
222,15015.1,0.0
223,15014.095000000001,0.0
224,15013.105,0.0
225,15012.115000000002,0.0
226,15011.125,0.0
227,15010.134999999998,0.0
228,15009.16,0.0
229,15008.17,0.0
230,15007.195,0.0
231,15006.235,0.0
232,15005.26,0.0
233,15004.3,0.0
234,15003.34,0.0
235,15002.380000000001,0.0
236,15001.435,0.0
237,15000.474999999999,0.0
238,14999.53,0.0
239,14998.585,0.0
240,14997.654999999999,0.0
241,14996.710000000001,0.0
242,14995.78,0.0
243,14994.849999999999,0.0
244,14993.919999999998,0.0
245,14993.005000000001,0.0
246,14992.075,0.0
247,14991.16,0.0
248,14990.259999999998,0.0
249,14989.345000000001,0.0
250,14988.43,0.0
251,14987.529999999999,0.0
252,14986.63,0.0
253,14985.73,0.0
254,14984.845000000001,0.0
255,14983.945,0.0
256,14983.060000000001,0.0
257,14982.175,0.0
258,14981.29,0.0
259,14980.42,0.0
260,14979.55,0.0
261,14978.665,0.0
262,14977.795,0.0
263,14976.939999999999,0.0
264,14976.07,0.0
265,14975.215,0.0
266,14974.36,0.0
267,14973.505000000001,0.0
268,14972.650000000001,0.0
269,14971.795000000002,0.0
270,14970.955,0.0
271,14970.115,0.0
272,14969.275,0.0
273,14968.435,0.0
274,14967.595,0.0
275,14966.77,0.0
276,14965.945,0.0
277,14965.119999999999,0.0
278,14964.295,0.0
279,14963.470000000001,0.0
280,14962.66,0.0
281,14961.835,0.0
282,14961.025,0.0
283,14960.215,0.0
284,14959.42,0.0
285,14958.61,0.0
286,14957.815,0.0
287,14957.005000000001,0.0
288,14956.21,0.0
289,14955.415,0.0
290,14954.635,0.0
291,14953.84,0.0
292,14953.060000000001,0.0
293,14952.279999999999,0.0
294,14951.5,0.0
295,14950.720000000001,0.0
296,14949.939999999999,0.0
297,14949.175,0.0
298,14948.395,0.0
299,14947.630000000001,0.0
300,14944.0,0.019800000000003593
301,14941.2,0.04070000000000107
302,14938.575,0.06110000000000326
303,14935.919999999998,0.0812000000000026
304,14933.4,0.10099999999999909
305,14930.994999999999,0.1203000000000003
306,14928.52,0.13949999999999818
307,14926.2,0.158299999999997
308,14923.880000000001,0.17680000000000007
309,14921.715,0.19489999999999696
310,14919.410000000002,0.21309999999999718
311,14917.300000000001,0.2306999999999988
312,14915.345000000001,0.24790000000000134
313,14913.220000000001,0.2652000000000001
314,14911.3,0.2820000000000036
315,14909.31,0.29870000000000374
316,14907.575,0.3147999999999982
317,14905.665,0.3310999999999993
318,14903.815000000002,0.3470999999999975
319,14902.005,0.36290000000000333
320,14900.419999999998,0.37810000000000343
321,14898.689999999999,0.39350000000000307
322,14897.02,0.39560000000000173
323,14895.64,0.3855999999999966
324,14894.085,0.37650000000000006
325,14892.535,0.3674999999999997
326,14891.025000000001,0.3584999999999994
327,14889.575,0.34949999999999903
328,14888.33,0.33979999999999677
329,14886.94,0.33079999999999643
330,14885.59,0.3218000000000032
331,14884.28,0.31280000000000285
332,14883.025000000001,0.3036999999999992
333,14882.045,0.2937000000000012
334,14880.855,0.28470000000000084
335,14879.685000000001,0.2757000000000005
336,14878.555,0.26670000000000016
337,14877.465,0.2576999999999998
338,14876.395,0.24869999999999948
339,14875.345000000001,0.23969999999999914
340,14874.355,0.2306999999999988
341,14873.385,0.22169999999999845
342,14872.64,0.2120000000000033
343,14871.715,0.20309999999999917
344,14870.825,0.19409999999999883
345,14869.975,0.1850999999999985
346,14869.165,0.17609999999999815
347,14868.375,0.1670999999999978
348,14867.59,0.15820000000000078
349,14867.165,0.14809999999999945
350,14866.474999999999,0.1390999999999991
351,14865.785,0.13009999999999877
352,14865.119999999999,0.12120000000000175
353,14864.49,0.11220000000000141
354,14863.9,0.10320000000000107
355,14863.33,0.09420000000000073
356,14862.765,0.0852999999999966
357,14862.39,0.07580000000000098
358,14861.695,0.06750000000000256
359,14861.224999999999,0.05850000000000222
360,14860.810000000001,0.049399999999998556
361,14860.400000000001,0.040399999999998215
362,14860.025000000001,0.03130000000000166
363,14859.654999999999,0.02230000000000132
364,14859.32,0.013199999999997658
365,14859.01,0.004199999999997317
366,14858.735,-0.004899999999999238
367,14858.465,-0.01389999999999958
368,14858.23,-0.02300000000000324
369,14858.015,-0.032099999999999795
370,14857.805,-0.041100000000000136
371,14857.65,-0.05019999999999669
372,14857.494999999999,-0.05930000000000035
373,14857.38,-0.06839999999999691
374,14857.285,-0.07750000000000057
375,14857.21,-0.08659999999999712
376,14857.135,-0.09570000000000078
377,14857.099999999999,-0.10479999999999734
378,14857.119999999999,-0.11399999999999721
379,14857.125,-0.12310000000000088
380,14857.150000000001,-0.13219999999999743
381,14857.210000000001,-0.1413999999999973
382,14857.29,-0.15059999999999718
383,14857.375,-0.15970000000000084
384,14857.515,-0.16890000000000072
385,14857.655,-0.1781000000000006
386,14857.814999999999,-0.18730000000000047
387,14858.015,-0.19650000000000034
388,14858.23,-0.20580000000000354
389,14858.45,-0.2150000000000034
390,14858.705,-0.2242999999999995
391,14859.0,-0.2336000000000027
392,14859.279999999999,-0.24280000000000257
393,14859.61,-0.252200000000002
394,14859.945,-0.26149999999999807
395,14860.32,-0.27080000000000126
396,14860.695,-0.28009999999999735
397,14861.105,-0.28949999999999676
398,14861.310000000001,-0.29820000000000135
399,14861.760000000002,-0.30760000000000076
400,14862.23,-0.31700000000000017
401,14862.735,-0.3265000000000029
402,14863.33,-0.33619999999999806
403,14863.650000000001,-0.34499999999999886
404,14864.215,-0.3545000000000016
405,14864.779999999999,-0.3639999999999972
406,14865.400000000001,-0.37360000000000326
407,14866.025000000001,-0.3830999999999989
408,14866.664999999999,-0.39269999999999783
409,14867.345,-0.40229999999999677
410,14868.025000000001,-0.4119000000000028
411,14868.76,-0.421599999999998
412,14869.375,-0.43090000000000117
413,14870.130000000001,-0.44060000000000343
414,14870.904999999999,-0.4502999999999986
415,14871.35,-0.4590000000000032
416,14872.18,-0.46880000000000166
417,14873.03,-0.47860000000000014
418,14873.92,-0.4883999999999986
419,14874.58,-0.4975999999999985
420,14875.505000000001,-0.5075000000000003
421,14876.465,-0.5174999999999983
422,14877.445000000002,-0.5275000000000034
423,14878.445,-0.5375000000000014
424,14879.08,-0.5463999999999984
425,14880.135000000002,-0.5564999999999998
426,14880.985,-0.5658999999999992
427,14882.095,-0.5760999999999967
428,14883.205,-0.5863000000000014
429,14884.355,-0.5964999999999989
430,14885.175,-0.6056999999999988
431,14886.38,-0.6159999999999997
432,14887.375,-0.6257000000000019
433,14888.635,-0.636099999999999
434,14889.53,-0.6454000000000022
435,14890.88,-0.6559999999999988
436,14892.005000000001,-0.6659000000000006
437,14893.375,-0.6764999999999972
438,14894.435000000001,-0.6861000000000033
439,14895.65,-0.6961999999999975
440,14897.164999999999,-0.707099999999997
441,14898.315,-0.7169000000000025
442,14899.654999999999,-0.7272999999999996
443,14900.894999999999,-0.7372999999999976
444,14902.345,-0.7479000000000013
445,14903.710000000001,-0.7582000000000022
446,14905.27,-0.7689999999999984
447,14906.53,-0.7790000000000035
448,14907.9,-0.789200000000001
449,14909.375,-0.7997000000000014
450,14911.06,-0.8108000000000004
451,14912.38,-0.8207999999999984
452,14914.224999999999,-0.8322999999999965
453,14917.314999999999,-0.847299999999997
454,14918.34,-0.8564000000000007
455,14913.880000000001,-0.8496000000000024
456,14909.439999999999,-0.8427999999999969
457,14905.0,-0.8359999999999985
458,14900.595,-0.8293000000000035
459,14896.21,-0.8226000000000013
460,14891.825,-0.8158999999999992
461,14887.439999999999,-0.809199999999997
462,14883.095,-0.802500000000002
463,14878.744999999999,-0.7959000000000032
464,14874.434999999998,-0.7892999999999972
465,14870.105,-0.7826999999999984
466,14865.815,-0.7760999999999996
467,14861.54,-0.769599999999997
468,14857.25,-0.7629999999999981
469,14852.994999999999,-0.7565000000000026
470,14848.759999999998,-0.75
471,14844.525,-0.7434999999999974
472,14840.305,-0.7370999999999981
473,14836.09,-0.7306000000000026
474,14831.910000000002,-0.7242000000000033
475,14827.73,-0.7177999999999969
476,14823.57,-0.7113999999999976
477,14819.425,-0.7051000000000016
478,14815.285,-0.6987000000000023
479,14811.16,-0.6923999999999992
480,14807.055,-0.6861000000000033
481,14802.95,-0.6798000000000002
482,14798.880000000001,-0.6736000000000004
483,14794.794999999998,-0.6672999999999973
484,14790.725,-0.6610999999999976
485,14786.695,-0.6548999999999978
486,14782.645,-0.6486999999999981
487,14778.635,-0.6424999999999983
488,14774.619999999999,-0.6364000000000019
489,14770.630000000001,-0.6302000000000021
490,14766.635,-0.6240999999999985
491,14762.66,-0.6180000000000021
492,14758.704999999998,-0.6118999999999986
493,14754.765,-0.6058999999999983
494,14750.830000000002,-0.5998000000000019
495,14746.91,-0.5938000000000017
496,14742.99,-0.5878000000000014
497,14739.09,-0.5818000000000012
498,14735.21,-0.575800000000001
499,14731.345,-0.569899999999997
500,14727.465,-0.5638999999999967
501,14723.619999999999,-0.5579999999999998
502,14719.775000000001,-0.5521000000000029
503,14715.95,-0.5461999999999989
504,14712.125,-0.540300000000002
505,14708.335,-0.5345000000000013
506,14704.529999999999,-0.5285999999999973
507,14700.76,-0.5227999999999966
508,14696.99,-0.517000000000003
509,14693.220000000001,-0.5112000000000023
510,14689.484999999999,-0.5054999999999978
511,14685.755,-0.49969999999999715
512,14682.02,-0.4939999999999998
513,14678.31,-0.4881999999999991
514,14674.595000000001,-0.4825000000000017
515,14670.915,-0.47690000000000055
516,14667.240000000002,-0.47120000000000317
517,14663.564999999999,-0.4654999999999987
518,14659.904999999999,-0.45989999999999753
519,14656.265,-0.4543000000000035
520,14652.625,-0.4487000000000023
521,14649.005,-0.44310000000000116
522,14645.384999999998,-0.4375
523,14641.785,-0.43189999999999884
524,14638.18,-0.426400000000001
525,14634.615000000002,-0.42090000000000316
526,14631.029999999999,-0.4153999999999982
527,14627.485,-0.4099000000000004
528,14623.920000000002,-0.40440000000000254
529,14620.375,-0.3988999999999976
530,14616.845000000001,-0.39350000000000307
531,14613.32,-0.3879999999999981
532,14609.81,-0.3825999999999965
533,14606.320000000002,-0.377200000000002
534,14602.83,-0.37180000000000035
535,14599.34,-0.3663999999999987
536,14595.885,-0.3611000000000004
537,14592.414999999999,-0.3556999999999988
538,14588.98,-0.3504000000000005
539,14585.544999999998,-0.3451000000000022
540,14582.109999999999,-0.33979999999999677
541,14578.695,-0.33449999999999847
542,14575.279999999999,-0.32920000000000016
543,14571.880000000001,-0.32399999999999807
544,14568.485,-0.31869999999999976
545,14565.105,-0.31349999999999767
546,14561.744999999999,-0.3083000000000027
547,14558.385,-0.3031000000000006
548,14555.025,-0.2978999999999985
549,14551.7,-0.2927999999999997
550,14548.36,-0.28759999999999764
551,14545.035,-0.28249999999999886
552,14541.715,-0.27729999999999677
553,14538.41,-0.272199999999998
554,14535.125,-0.2670999999999992
555,14531.84,-0.26200000000000045
556,14528.57,-0.2569999999999979
557,14525.305,-0.2518999999999991
558,14522.055,-0.24689999999999657
559,14518.79,-0.2417999999999978
560,14515.560000000001,-0.23680000000000234
561,14512.330000000002,-0.23179999999999978
562,14509.099999999999,-0.22679999999999723
563,14505.904999999999,-0.221899999999998
564,14502.695000000002,-0.21690000000000254
565,14499.5,-0.2120000000000033
566,14496.310000000001,-0.20700000000000074
567,14493.135,-0.2021000000000015
568,14489.980000000001,-0.19720000000000226
569,14486.825,-0.19230000000000302
570,14483.67,-0.18739999999999668
571,14480.515,-0.18249999999999744
572,14477.395,-0.17770000000000152
573,14474.274999999998,-0.1728999999999985
574,14471.16,-0.16799999999999926
575,14468.06,-0.16320000000000334
576,14464.96,-0.15840000000000032
577,14461.86,-0.1535999999999973
578,14458.78,-0.14880000000000138
579,14455.715,-0.14410000000000167
580,14452.654999999999,-0.13929999999999865
581,14449.609999999999,-0.13459999999999894
582,14446.564999999999,-0.12989999999999924
583,14443.505000000001,-0.12510000000000332
584,14440.48,-0.12039999999999651
585,14437.455,-0.1156999999999968
586,14434.445,-0.11110000000000042
587,14431.439999999999,-0.10640000000000072
588,14428.45,-0.10179999999999723
589,14425.465,-0.09709999999999752
590,14422.475,-0.09250000000000114
591,14419.505,-0.08789999999999765
592,14416.555,-0.08330000000000126
593,14413.585,-0.07869999999999777
594,14410.635000000002,-0.07410000000000139
595,14407.685000000001,-0.0694999999999979
596,14404.77,-0.06499999999999773
597,14401.84,-0.06040000000000134
598,14398.925,-0.05590000000000117
599,14396.01,-0.051400000000001
