id,tc,fair
0,7561.0075,-1.6916999999999973
1,7560.055,-1.678999999999995
2,7559.11,-1.6663999999999959
3,7558.172500000001,-1.6539000000000001
4,7557.235000000001,-1.6413999999999973
5,7556.305,-1.6289999999999978
6,7555.3825,-1.6166999999999945
7,7554.46,-1.6043999999999983
8,7553.545,-1.5921999999999983
9,7552.63,-1.5799999999999983
10,7551.7225,-1.5678999999999945
11,7550.8225,-1.555899999999994
12,7549.922500000001,-1.5439000000000007
13,7549.0225,-1.5319000000000003
14,7548.137500000001,-1.5200999999999993
15,7547.2525000000005,-1.5082999999999984
16,7546.3675,-1.4964999999999975
17,7545.49,-1.4848
18,7544.612499999999,-1.4730999999999952
19,7543.75,-1.4615999999999971
20,7542.879999999999,-1.4499999999999957
21,7542.0175,-1.4384999999999977
22,7541.1625,-1.4270999999999958
23,7540.3075,-1.415699999999994
24,7539.459999999999,-1.4043999999999954
25,7538.620000000001,-1.3932000000000002
26,7537.772499999999,-1.3818999999999946
27,7536.94,-1.3707999999999956
28,7536.1075,-1.3596999999999966
29,7535.275,-1.3485999999999976
30,7534.45,-1.3375999999999948
31,7533.6325,-1.3266999999999953
32,7532.8150000000005,-1.3157999999999959
33,7531.9974999999995,-1.3048999999999964
34,7531.1875,-1.2941000000000003
35,7530.385,-1.2834000000000003
36,7529.575,-1.272599999999997
37,7528.780000000001,-1.2620000000000005
38,7527.985000000001,-1.2513999999999967
39,7527.1900000000005,-1.2408000000000001
40,7526.4025,-1.2302999999999997
41,7525.6224999999995,-1.2198999999999955
42,7524.834999999999,-1.2093999999999951
43,7524.0625,-1.1990999999999943
44,7523.290000000001,-1.1888000000000005
45,7522.5175,-1.1784999999999997
46,7521.7525,-1.168299999999995
47,7520.9875,-1.1580999999999975
48,7520.2225,-1.1479
49,7519.465,-1.1377999999999986
50,7518.715,-1.1278000000000006
51,7517.965,-1.1177999999999955
52,7517.215,-1.1077999999999975
53,7516.4725,-1.0978999999999957
54,7515.737499999999,-1.0880999999999972
55,7514.995,-1.0781999999999954
56,7514.26,-1.068399999999997
57,7513.532499999999,-1.0586999999999946
58,7512.805,-1.0489999999999995
59,7512.077499999999,-1.0392999999999972
60,7511.3575,-1.0296999999999983
61,7510.645,-1.0201999999999956
62,7509.924999999999,-1.0105999999999966
63,7509.2125,-1.0010999999999939
64,7508.5075,-0.9916999999999945
65,7507.8025,-0.9822999999999951
66,7507.0975,-0.9728999999999957
67,7506.4,-0.9635999999999996
68,7505.702499999999,-0.9542999999999964
69,7505.005,-0.9450000000000003
70,7504.3150000000005,-0.9358000000000004
71,7503.6325,-0.9266999999999967
72,7502.9425,-0.9174999999999969
73,7502.26,-0.9084000000000003
74,7501.585,-0.8994
75,7500.91,-0.8903999999999996
76,7500.235000000001,-0.8813999999999993
77,7499.567499999999,-0.8724999999999952
78,7498.8925,-0.8634999999999948
79,7498.2325,-0.854699999999994
80,7497.5725,-0.8459000000000003
81,7496.9125,-0.8370999999999995
82,7496.2525000000005,-0.8282999999999987
83,7495.6,-0.8195999999999941
84,7494.9475,-0.8108999999999966
85,7494.3025,-0.8022999999999954
86,7493.65,-0.7935999999999979
87,7493.012500000001,-0.7850999999999999
88,7492.3675,-0.7764999999999986
89,7491.73,-0.7680000000000007
90,7491.0925,-0.7594999999999956
91,7490.4625,-0.7510999999999939
92,7489.8325,-0.7426999999999992
93,7489.202499999999,-0.7342999999999975
94,7488.58,-0.7259999999999991
95,7487.9575,-0.7177000000000007
96,7487.334999999999,-0.7093999999999951
97,7486.72,-0.7012
98,7486.105,-0.6929999999999978
99,7485.49,-0.6847999999999956
100,7484.8825,-0.6766999999999967
101,7484.275,-0.6685999999999979
102,7483.6675,-0.660499999999999
103,7483.067499999999,-0.6524999999999963
104,7482.467500000001,-0.6445000000000007
105,7481.8675,-0.6364999999999981
106,7481.2675,-0.6284999999999954
107,7480.674999999999,-0.620599999999996
108,7480.0825,-0.6126999999999967
109,7479.4975,-0.6049000000000007
110,7478.9125,-0.5970999999999975
111,7478.327499999999,-0.5892999999999944
112,7477.7425,-0.5814999999999984
113,7477.165,-0.5737999999999985
114,7476.5875,-0.5660999999999987
115,7476.01,-0.5583999999999989
116,7475.44,-0.5507999999999953
117,7474.87,-0.5431999999999988
118,7474.299999999999,-0.5355999999999952
119,7473.737499999999,-0.5280999999999949
120,7473.1675,-0.5204999999999984
121,7472.605,-0.5129999999999981
122,7472.049999999999,-0.505599999999994
123,7471.487499999999,-0.49809999999999377
124,7470.9325,-0.4906999999999968
125,7470.385,-0.48339999999999606
126,7469.83,-0.4759999999999991
127,7469.282499999999,-0.46869999999999834
128,7468.735000000001,-0.4613999999999976
129,7468.1875,-0.45409999999999684
130,7467.6475,-0.4468999999999994
131,7467.1075,-0.4396999999999949
132,7466.5675,-0.43249999999999744
133,7466.0275,-0.4253
134,7465.495,-0.4181999999999988
135,7464.9625,-0.4110999999999976
136,7464.43,-0.40399999999999636
137,7463.897499999999,-0.39689999999999515
138,7463.3724999999995,-0.38989999999999725
139,7462.8475,-0.38289999999999935
140,7462.3225,-0.37589999999999435
141,7461.805,-0.3689999999999998
142,7461.2875,-0.3620999999999981
143,7460.77,-0.3551999999999964
144,7460.2525,-0.3482999999999947
145,7459.7425,-0.34149999999999636
146,7459.225,-0.3345999999999947
147,7458.715,-0.3277999999999963
148,7458.2125,-0.32109999999999417
149,7457.702499999999,-0.3142999999999958
150,7457.200000000001,-0.30760000000000076
151,7456.6975,-0.3008999999999986
152,7456.195,-0.29419999999999646
153,7455.7,-0.28759999999999764
154,7455.1975,-0.2808999999999955
155,7454.702499999999,-0.27429999999999666
156,7454.215,-0.26779999999999404
157,7453.719999999999,-0.2611999999999952
158,7453.2325,-0.2546999999999997
159,7452.745,-0.2481999999999971
160,7452.2575,-0.24169999999999447
161,7451.77,-0.23519999999999897
162,7451.29,-0.22879999999999967
163,7450.81,-0.22240000000000038
164,7450.33,-0.21599999999999397
165,7449.85,-0.20959999999999468
166,7449.3775000000005,-0.2032999999999987
167,7448.8975,-0.1968999999999994
168,7448.424999999999,-0.19059999999999633
169,7447.9525,-0.18430000000000035
170,7447.4875,-0.1781000000000006
171,7447.022499999999,-0.17189999999999372
172,7446.55,-0.16559999999999775
173,7446.085,-0.159399999999998
174,7445.6275,-0.15329999999999444
175,7445.1625,-0.14709999999999468
176,7444.705,-0.14099999999999824
177,7444.2474999999995,-0.1348999999999947
178,7443.79,-0.12879999999999825
179,7443.3325,-0.1226999999999947
180,7442.8825,-0.11669999999999447
181,7442.4325,-0.11069999999999425
182,7441.9825,-0.10469999999999402
183,7441.532499999999,-0.09869999999999379
184,7441.0825,-0.09270000000000067
185,7440.639999999999,-0.08679999999999666
186,7440.1900000000005,-0.08079999999999643
187,7439.7474999999995,-0.07489999999999952
188,7439.3125,-0.06909999999999883
189,7438.87,-0.06319999999999482
190,7438.4349999999995,-0.05739999999999412
191,7437.9925,-0.051499999999997215
192,7437.5575,-0.04569999999999652
193,7437.13,-0.03999999999999915
194,7436.695,-0.034199999999998454
195,7436.2675,-0.028499999999993975
196,7435.8325,-0.022700000000000387
197,7435.405,-0.016999999999995907
198,7434.9775,-0.011299999999998533
199,7434.5575,-0.005699999999997374
200,7434.13,0
201,7433.71,0.0
202,7433.29,0.0
203,7432.87,0.0
204,7432.45,0.0
205,7432.0375,0.0
206,7431.6175,0.0
207,7431.205,0.0
208,7430.7925,0.0
209,7430.379999999999,0.0
210,7429.975,0.0
211,7429.5625,0.0
212,7429.157499999999,0.0
213,7428.7525000000005,0.0
214,7428.3475,0.0
215,7427.9425,0.0
216,7427.5375,0.0
217,7427.139999999999,0.0
218,7426.7425,0.0
219,7426.345,0.0
220,7425.9475,0.0
221,7425.549999999999,0.0
222,7425.16,0.0
223,7424.7625,0.0
224,7424.3724999999995,0.0
225,7423.9825,0.0
226,7423.5925,0.0
227,7423.202499999999,0.0
228,7422.82,0.0
229,7422.43,0.0
230,7422.0475,0.0
231,7421.665,0.0
232,7421.282499999999,0.0
233,7420.9,0.0
234,7420.525,0.0
235,7420.1425,0.0
236,7419.7675,0.0
237,7419.3925,0.0
238,7419.0175,0.0
239,7418.6425,0.0
240,7418.275,0.0
241,7417.9,0.0
242,7417.5325,0.0
243,7417.164999999999,0.0
244,7416.7975,0.0
245,7416.43,0.0
246,7416.0625,0.0
247,7415.695,0.0
248,7415.334999999999,0.0
249,7414.975,0.0
250,7414.615,0.0
251,7414.255,0.0
252,7413.895,0.0
253,7413.535,0.0
254,7413.182500000001,0.0
255,7412.8225,0.0
256,7412.469999999999,0.0
257,7412.1175,0.0
258,7411.764999999999,0.0
259,7411.4125,0.0
260,7411.0599999999995,0.0
261,7410.715,0.0
262,7410.37,0.0
263,7410.0175,0.0
264,7409.6725,0.0
265,7409.3275,0.0
266,7408.9825,0.0
267,7408.645,0.0
268,7408.3,0.0
269,7407.9625,0.0
270,7407.6175,0.0
271,7407.28,0.0
272,7406.942499999999,0.0
273,7406.605,0.0
274,7406.275,0.0
275,7405.9375,0.0
276,7405.6,0.0
277,7405.2699999999995,0.0
278,7404.9400000000005,0.0
279,7404.610000000001,0.0
280,7404.28,0.0
281,7403.950000000001,0.0
282,7403.62,0.0
283,7403.2975,0.0
284,7402.967500000001,0.0
285,7402.645,0.0
286,7402.3225,0.0
287,7402.0,0.0
288,7401.6775,0.0
289,7401.355,0.0
290,7401.032499999999,0.0
291,7400.7175,0.0
292,7400.395,0.0
293,7400.08,0.0
294,7399.764999999999,0.0
295,7399.442499999999,0.0
296,7399.135,0.0
297,7398.82,0.0
298,7398.505,0.0
299,7398.19,0.0
300,7397.8825,0.0
301,7397.567499999999,0.0
302,7397.26,0.0
303,7396.9525,0.0
304,7396.645,0.0
305,7396.3375,0.0
306,7396.03,0.0
307,7395.73,0.0
308,7395.422500000001,0.0
309,7395.1225,0.0
310,7394.8150000000005,0.0
311,7394.514999999999,0.0
312,7394.215,0.0
313,7393.915,0.0
314,7393.615,0.0
315,7393.3150000000005,0.0
316,7393.022499999999,0.0
317,7392.7225,0.0
318,7392.43,0.0
319,7392.1375,0.0
320,7391.8375,0.0
321,7391.545,0.0
322,7391.2525000000005,0.0
323,7390.96,0.0
324,7390.675,0.0
325,7390.3825,0.0
326,7390.09,0.0
327,7389.805,0.0
328,7389.5125,0.0
329,7389.2275,0.0
330,7388.942499999999,0.0
331,7389.5475,-0.008600000000001273
332,7389.195,-0.00019999999999953388
333,7388.8525,0.008099999999998886
334,7388.51,0.016399999999997306
335,7388.16,0.024699999999995725
336,7387.950000000001,0.03219999999999601
337,7387.6025,0.040399999999998215
338,7387.2525000000005,0.048699999999996635
339,7386.895,0.056999999999995055
340,7386.547500000001,0.06519999999999726
341,7386.1925,0.07339999999999947
342,7385.834999999999,0.08169999999999789
343,7385.48,0.08990000000000009
344,7385.1275000000005,0.09799999999999898
345,7384.772499999999,0.10620000000000118
346,7384.42,0.11430000000000007
347,7384.057500000001,0.12249999999999517
348,7383.6975,0.13060000000000116
349,7383.3375,0.13870000000000005
350,7382.987500000001,0.1466999999999956
351,7382.6275,0.1548000000000016
352,7382.2675,0.1629000000000005
353,7381.91,0.17089999999999606
354,7381.5525,0.17889999999999873
355,7381.41,0.18549999999999756
356,7381.035,0.19359999999999644
357,7380.67,0.2015999999999991
358,7380.3150000000005,0.20949999999999847
359,7379.942499999999,0.21750000000000114
360,7379.58,0.2254000000000005
361,7379.2075,0.23339999999999606
362,7378.845,0.2412999999999954
363,7378.6075,0.24839999999999662
364,7378.237500000001,0.256299999999996
365,7377.860000000001,0.2641999999999953
366,7377.5,0.27199999999999847
367,7377.1224999999995,0.2798999999999978
368,7376.745000000001,0.28779999999999717
369,7376.37,0.2956000000000003
370,7375.995000000001,0.30339999999999634
371,7375.620000000001,0.3111999999999995
372,7375.245000000001,0.3189999999999955
373,7375.092500000001,0.3253999999999948
374,7374.71,0.33319999999999794
375,7374.32,0.3410000000000011
376,7373.9375,0.3375000000000057
377,7373.5475,0.3323000000000036
378,7373.300000000001,0.3263999999999996
379,7372.9025,0.3213000000000008
380,7372.522499999999,0.3161000000000058
381,7372.135,0.31099999999999994
382,7371.74,0.3060000000000045
383,7371.342499999999,0.3009000000000057
384,7371.16,0.29480000000000217
385,7370.7575,0.28990000000000293
386,7370.355,0.2850000000000037
387,7370.085,0.27940000000000254
388,7369.665000000001,0.2745999999999995
389,7369.262500000001,0.2697000000000003
390,7368.8525,0.26490000000000435
391,7368.6375,0.25910000000000366
392,7368.335,0.25380000000000535
393,7367.9,0.24920000000000186
394,7367.4475,0.2447000000000017
395,7367.2075,0.23910000000000053
396,7366.879999999999,0.23400000000000176
397,7366.385,0.22980000000000445
398,7366.102499999999,0.22450000000000614
399,7365.6875,0.21990000000000265
400,7365.45,0.2144000000000048
401,7364.9925,0.21010000000000417
402,7364.5075,0.20589999999999975
403,7363.6075,0.2039000000000044
404,7361.942500000001,0.20570000000000022
405,7359.935,0.20940000000000225
406,7357.935,0.21300000000000097
407,7355.9375,0.216700000000003
408,7353.9475,0.22030000000000172
409,7351.9675,0.22390000000000043
410,7349.9974999999995,0.22750000000000625
411,7348.0275,0.23110000000000497
412,7346.067499999999,0.23470000000000368
413,7344.1075,0.2383000000000024
414,7342.157500000001,0.24190000000000111
415,7340.215,0.24540000000000362
416,7338.275,0.24900000000000233
417,7336.3425,0.25250000000000483
418,7334.4125,0.25610000000000355
419,7332.49,0.25960000000000605
420,7330.577499999999,0.26310000000000144
421,7328.674999999999,0.26660000000000394
422,7326.772500000001,0.27009999999999934
423,7324.87,0.27360000000000184
424,7322.9875,0.27710000000000434
425,7321.095,0.28059999999999974
426,7319.219999999999,0.284000000000006
427,7317.3475,0.2875000000000014
428,7315.475,0.2910000000000039
429,7313.62,0.2944000000000031
430,7311.765,0.2978000000000023
431,7309.9125,0.3013000000000048
432,7308.067499999999,0.30470000000000397
433,7306.2225,0.30810000000000315
434,7304.3975,0.31150000000000233
435,7302.5625,0.3149000000000015
436,7300.7475,0.3183000000000007
437,7298.93,0.32160000000000366
438,7297.115,0.32500000000000284
439,7295.3099999999995,0.328400000000002
440,7293.5125,0.331700000000005
441,7291.717500000001,0.3351000000000042
442,7289.93,0.33840000000000003
443,7288.1425,0.341700000000003
444,7286.3575,0.3451000000000022
445,7284.59,0.34840000000000515
446,7282.8225,0.351700000000001
447,7281.055,0.355000000000004
448,7279.297500000001,0.35829999999999984
449,7277.55,0.3616000000000028
450,7275.81,0.36480000000000246
451,7274.0625,0.3681000000000054
452,7272.325,0.3714000000000013
453,7270.595,0.37460000000000093
454,7268.875,0.3778000000000006
455,7267.147499999999,0.38110000000000355
456,7265.4375,0.3843000000000032
457,7263.727500000001,0.38750000000000284
458,7262.01,0.3908000000000058
459,7260.31,0.39400000000000546
460,7258.610000000001,0.3972000000000051
461,7256.9275,0.40030000000000143
462,7255.2375,0.4035000000000011
463,7253.557500000001,0.4067000000000007
464,7251.8775000000005,0.4099000000000004
465,7250.215,0.4130000000000038
466,7248.545,0.41620000000000346
467,7246.8825,0.4192999999999998
468,7245.2225,0.42249999999999943
469,7243.57,0.42560000000000286
470,7241.9275,0.4287000000000063
471,7240.2775,0.43190000000000595
472,7238.645,0.4350000000000023
473,7237.012499999999,0.4381000000000057
474,7235.38,0.44120000000000203
475,7233.7575,0.44430000000000547
476,7232.1425,0.4473000000000056
477,7230.53,0.4504000000000019
478,7228.9175,0.45350000000000534
479,7227.305,0.45660000000000167
480,7225.709999999999,0.4596000000000018
481,7224.1075,0.4627000000000052
482,7222.5225,0.46570000000000533
483,7220.9375,0.46870000000000545
484,7219.345,0.4718000000000018
485,7217.77,0.4748000000000019
486,7216.195,0.477800000000002
487,7214.630000000001,0.4808000000000021
488,7213.065,0.48380000000000223
489,7211.5,0.48680000000000234
490,7209.945,0.48980000000000246
491,7208.389999999999,0.49280000000000257
492,7206.852500000001,0.49569999999999936
493,7205.307500000001,0.4986999999999995
494,7203.762500000001,0.5016999999999996
495,7202.235,0.5046000000000035
496,7200.7,0.5076000000000036
497,7199.172500000001,0.5105000000000004
498,7197.655,0.5134000000000043
499,7196.129999999999,0.5164000000000044
500,7194.6224999999995,0.5193000000000012
501,7193.115,0.5222000000000051
502,7191.6075,0.5251000000000019
503,7190.110000000001,0.5280000000000058
504,7188.6125,0.5309000000000026
505,7187.115,0.5337999999999994
506,7185.6275000000005,0.5367000000000033
507,7184.14,0.5396000000000001
508,7182.67,0.5424000000000007
509,7181.192499999999,0.5453000000000046
510,7179.7225,0.5481000000000051
511,7178.244999999999,0.5510000000000019
512,7176.785,0.5538000000000025
513,7175.3175,0.5566999999999993
514,7173.8675,0.5594999999999999
515,7172.4175,0.5623000000000005
516,7170.959999999999,0.5652000000000044
517,7169.52,0.568000000000005
518,7168.08,0.5708000000000055
519,7166.639999999999,0.5736000000000061
520,7165.21,0.5763999999999996
521,7163.78,0.5792000000000002
522,7162.35,0.5820000000000007
523,7160.9375,0.5847000000000051
524,7159.5175,0.5875000000000057
525,7158.0975,0.5903000000000063
526,7156.695,0.5930000000000035
527,7155.285,0.5958000000000041
528,7153.8825,0.5985000000000014
529,7152.4825,0.6013000000000019
530,7151.09,0.6039999999999992
531,7149.6975,0.6067000000000036
532,7148.3075,0.6095000000000041
533,7146.925,0.6122000000000014
534,7145.5425,0.6149000000000058
535,7144.17,0.617600000000003
536,7142.797500000001,0.6203000000000003
537,7141.424999999999,0.6230000000000047
538,7140.0525,0.6257000000000019
539,7138.69,0.6284000000000063
540,7137.335,0.6310000000000002
541,7135.9825,0.6337000000000046
542,7134.63,0.6364000000000019
543,7133.285,0.6390000000000029
544,7131.9325,0.6417000000000002
545,7130.5975,0.6443000000000012
546,7129.254999999999,0.6470000000000056
547,7127.92,0.6495999999999995
548,7126.5875,0.6523000000000039
549,7125.262500000001,0.6549000000000049
550,7123.9375,0.657500000000006
551,7122.6224999999995,0.6600999999999999
552,7121.307500000001,0.662700000000001
553,7119.9925,0.665300000000002
554,7118.6775,0.667900000000003
555,7117.3724999999995,0.6705000000000041
556,7116.0675,0.6731000000000051
557,7114.7625,0.6757000000000062
558,7113.467500000001,0.6783000000000001
559,7112.18,0.680800000000005
560,7110.885,0.683400000000006
561,7109.6,0.6859999999999999
562,7108.3125,0.6885000000000048
563,7107.0275,0.6911000000000058
564,7105.759999999999,0.6936000000000035
565,7104.475,0.6962000000000046
566,7103.2075,0.6987000000000023
567,7101.950000000001,0.7012
568,7100.675,0.7038000000000011
569,7099.4175,0.7063000000000059
570,7098.16,0.7088000000000036
571,7096.9025,0.7113000000000014
572,7095.655000000001,0.7138000000000062
573,7094.407499999999,0.7163000000000039
574,7093.16,0.7188000000000017
575,7091.9125,0.7212999999999994
576,7090.674999999999,0.7238000000000042
577,7089.445,0.7262000000000057
578,7088.2075,0.7287000000000035
579,7086.98,0.7312000000000012
580,7085.742499999999,0.733700000000006
581,7084.522500000001,0.7361000000000004
582,7083.305,0.7386000000000053
583,7082.085,0.7409999999999997
584,7080.867499999999,0.7435000000000045
585,7079.657499999999,0.745900000000006
586,7078.4575,0.7483000000000004
587,7077.24,0.7508000000000052
588,7076.040000000001,0.7531999999999996
589,7074.84,0.7556000000000012
590,7073.65,0.7580000000000027
591,7072.45,0.7604000000000042
592,7071.26,0.7628000000000057
593,7070.070000000001,0.7652000000000001
594,7068.89,0.7676000000000016
595,7067.700000000001,0.7700000000000031
596,7066.5199999999995,0.7724000000000046
597,7065.339999999999,0.7748000000000062
598,7064.1775,0.7771000000000043
599,7063.0075,0.7795000000000059
600,7061.827499999999,0.7819000000000003
601,7060.674999999999,0.7842000000000056
602,7059.505,0.7866
603,7058.344999999999,0.7890000000000015
604,7057.1925,0.7912999999999997
605,7056.04,0.793600000000005
606,7054.880000000001,0.7959999999999994
607,7053.737499999999,0.7983000000000047
608,7052.594999999999,0.8006000000000029
609,7051.445,0.8030000000000044
610,7050.3025,0.8053000000000026
611,7049.17,0.8076000000000008
612,7048.0375,0.8099000000000061
613,7046.904999999999,0.8122000000000043
614,7045.7725,0.8145000000000024
615,7044.639999999999,0.8168000000000006
616,7043.5175,0.8191000000000059
617,7042.395,0.8214000000000041
618,7041.272499999999,0.8237000000000023
619,7040.16,0.8260000000000005
620,7039.055,0.8282000000000025
621,7037.9425,0.8305000000000007
622,7036.83,0.832800000000006
623,7035.725,0.8350000000000009
624,7034.6224999999995,0.8373000000000062
625,7033.5175,0.839500000000001
626,7032.425,0.8417999999999992
627,7031.33,0.8440000000000012
